# Messing: cm[x] D[µm]
3.0      0
4.5      2
6.0      7
7.5    7.5
9.0      0
10.5     -2
12.0    -14
13.5    -24
15.0    -29
16.5    -40
18.0    -56
19.5  -73.5
21.0    -88
22.5   -116
24.0   -132
25.5   -153
27.0   -175
28.5   -195
30.0   -221
31.5   -242
33.0   -266
