#U_A[V] I_A[mA] 2A I_f 4V U_f | U_A[V] I_A[mA] 2.1A I_f 4.25V U_f | U_A[V] I_A[mA] 2.2A I_f 4.5V U_f
# 0   0.000    0   0.000    0   0.000
  2.5 0.003    2.5 0.004    2.5 0.005
  5   0.008    5   0.011    5   0.014
  7.5 0.014    7.5 0.018    7.5 0.022
 10   0.021   10   0.026   10   0.033
 12.5 0.028   12.5 0.034   12.5 0.045
 15   0.034   15   0.042   15   0.054
 17.5 0.041   17.5 0.050   17.5 0.065
 20   0.048   20   0.059   20   0.078
 22.5 0.055   22.5 0.067   22.5 0.090
 25   0.061   25   0.080   25   0.104
 27.5 0.069   27.5 0.090   27.5 0.117
 30   0.076   30   0.101   30   0.129
 32.5 0.083   32.5 0.111   32.5 0.142
 35   0.090   35   0.123   35   0.155
 37.5 0.096   37.5 0.133   37.5 0.166
 40   0.101   40   0.142   40   0.180
 45   0.110   45   0.161   45   0.212
 50   0.118   50   0.181   50   0.240
 55   0.124   55   0.202   55   0.267
 60   0.125   60   0.223   60   0.300
 70   0.129   70   0.252   70   0.363
 80   0.135   80   0.273   80   0.421
 90   0.139   90   0.280   90   0.475
100   0.142  100   0.300  100   0.524
110   0.144  110   0.307  110   0.567
120   0.146  120   0.314  120   0.601
130   0.147  130   0.316  130   0.623
140   0.148  140   0.320  140   0.643
150   0.149  150   0.323  150   0.659
160   0.150  160   0.325  160   0.671
170   0.151  170   0.328  170   0.680
180   0.152  180   0.330  180   0.685
190   0.153  190   0.331  190   0.691
200   0.153  200   0.332  200   0.696
210   0.154  210   0.334  210   0.700
220   0.154  220   0.336  220   0.704
230   0.155  230   0.337  230   0.708
240   0.156  240   0.339  240   0.711
250   0.156  250   0.340  250   0.715
